time,x,y,vx,vy,psi1,psi2,psi3,delta_psi1,delta_psi2,delta_psi3,radius
0.103690,0.011538,-0.001538,-0.008461,-0.000000,2.000000,2.000000,2.000000,2.000000,2.000000,2.000000,0.011640
0.206881,0.013846,-0.000769,-0.002307,0.000769,4.000000,4.000000,4.000000,2.000000,2.000000,2.000000,0.013867
0.308245,0.013846,-0.000769,0.000000,-0.000000,3.613722,3.021570,2.352546,-0.386278,-0.978430,-1.647454,0.013867
0.410912,0.013846,-0.001538,0.000000,-0.000769,3.614687,3.620814,2.920615,0.000965,0.599243,0.568069,0.013931
0.512251,0.011538,-0.001538,0.001538,-0.000000,3.671353,4.666107,3.366594,0.056666,1.045293,0.445979,0.011640
0.614745,0.007692,-0.001538,0.003846,-0.000000,3.850995,4.047994,3.639645,0.179642,-0.618113,0.273051,0.007845
0.717014,0.003846,-0.000769,0.003077,0.000769,3.599019,3.878071,2.655948,-0.251976,-0.169922,-0.983697,0.003922
0.818924,-0.000769,-0.000769,0.004615,-0.000000,3.141167,4.010721,2.746917,-0.457852,0.132649,0.090969,0.001088
0.920227,-0.005385,-0.000769,0.004615,-0.000000,3.044051,4.220180,3.322947,-0.097116,0.209459,0.576031,0.005439
1.022483,-0.008462,-0.000769,0.003077,-0.000000,3.334077,3.898551,3.289375,0.290026,-0.321628,-0.033572,0.008496
1.123985,-0.013846,0.000000,0.005384,0.000769,3.347911,3.807444,3.233701,0.013834,-0.091107,-0.055674,0.013846
1.226097,-0.017692,0.001538,0.003077,0.000769,2.672061,4.214126,3.760614,-0.675849,0.406682,0.526913,0.017759
1.327175,-0.021538,0.003077,0.003077,0.000769,3.644613,3.903771,2.978138,0.972552,-0.310355,-0.782476,0.021757
1.429539,-0.025384,0.005385,0.003846,0.002307,2.868580,5.066946,3.964645,-0.776033,1.163175,0.986508,0.025949
1.531528,-0.029231,0.008462,0.003077,0.002307,4.505899,5.693553,2.383944,1.637319,0.626607,-1.580701,0.030431
1.633272,-0.030769,0.011538,0.001538,0.002307,3.155923,5.332043,3.716298,-1.349976,-0.361511,1.332353,0.032861
1.735333,-0.033077,0.014615,0.001538,0.002307,4.046857,5.829909,2.343329,0.890934,0.497867,-1.372968,0.036162
1.837147,-0.033077,0.016154,0.000000,0.001538,3.654237,5.089691,3.412426,-0.392620,-0.740219,1.069097,0.036811
1.939192,-0.033077,0.016923,0.000000,-0.000000,4.304132,5.397639,3.206539,0.649894,0.307948,-0.205887,0.037155
2.041546,-0.032308,0.016923,-0.000769,-0.000000,3.487320,5.317158,4.088360,-0.816812,-0.080481,0.881821,0.036471
2.143713,-0.030000,0.016154,-0.002307,-0.000769,3.862808,4.586540,2.390661,0.375488,-0.730618,-1.697700,0.034072
2.245777,-0.028461,0.014615,-0.001538,-0.000769,3.788421,3.905473,2.826689,-0.074387,-0.681067,0.436029,0.031995
2.348243,-0.025384,0.013077,-0.002307,-0.000769,3.556774,4.688841,3.695786,-0.231647,0.783368,0.869097,0.028555
2.450286,-0.023846,0.011538,-0.001538,-0.000769,3.969400,3.729933,3.363429,0.412626,-0.958908,-0.332358,0.026491
2.552644,-0.023077,0.010000,0.000000,-0.000769,3.456341,3.960358,3.104399,-0.513059,0.230425,-0.259030,0.025150
2.655266,-0.020769,0.007692,-0.002307,-0.002307,3.528676,3.927649,3.268547,0.072335,-0.032709,0.164148,0.022148
2.757481,-0.022308,0.007692,0.000769,-0.000000,3.887740,4.179410,3.282056,0.359065,0.251761,0.013509,0.023597
2.861436,-0.022308,0.007692,0.000000,-0.000000,3.324529,4.110542,2.914736,-0.563211,-0.068867,-0.367320,0.023597
2.965723,-0.023846,0.007692,0.000769,-0.000000,3.379459,3.999041,3.478099,0.054930,-0.111502,0.563363,0.025056
3.068642,-0.023846,0.007692,0.000000,-0.000000,3.525121,4.034007,2.834027,0.145662,0.034966,-0.644072,0.025056
3.170222,-0.027692,0.009231,0.003077,0.000769,3.484588,3.820645,3.203882,-0.040533,-0.213362,0.369855,0.029190
3.272042,-0.029231,0.010769,0.001538,0.000769,2.822360,4.120885,2.890713,-0.662228,0.300240,-0.313169,0.031151
3.374265,-0.032308,0.012308,0.002307,0.000769,3.131495,3.651497,2.836827,0.309135,-0.469388,-0.053886,0.034572
3.477005,-0.033846,0.013846,0.001538,0.000769,2.882137,3.681226,3.214800,-0.249359,0.029729,0.377973,0.036569
3.579187,-0.036923,0.016154,0.002307,0.002307,3.148285,3.746353,2.800109,0.266149,0.065127,-0.414691,0.040302
3.680932,-0.040000,0.017692,0.002307,0.001538,2.781441,4.428106,3.144169,-0.366844,0.681753,0.344060,0.043738
3.782861,-0.041538,0.020769,0.001538,0.002307,3.366997,4.180676,2.548492,0.585557,-0.247430,-0.595677,0.046441
3.884347,-0.044615,0.023846,0.002307,0.002307,2.841448,4.587695,3.121970,-0.525549,0.407019,0.573478,0.050588
3.986577,-0.045384,0.026923,0.000769,0.002307,3.583403,5.221944,2.469813,0.741954,0.634249,-0.652157,0.052769
4.088460,-0.045384,0.027692,0.000000,0.000769,3.632888,4.482968,3.564711,0.049485,-0.738976,1.094898,0.053166
4.190118,-0.044615,0.026923,-0.000769,-0.000769,4.001062,5.344502,3.414891,0.368175,0.861535,-0.149820,0.052109
4.291897,-0.043077,0.024615,-0.000769,-0.002307,3.408918,4.364800,4.017463,-0.592144,-0.979702,0.602572,0.049614
4.393630,-0.041538,0.023077,-0.000769,-0.001538,4.294341,4.817197,3.426382,0.885423,0.452397,-0.591081,0.047518
4.494669,-0.039231,0.020769,-0.002307,-0.001538,3.028766,4.974076,4.393148,-1.265575,0.156879,0.966766,0.044389
4.598398,-0.036154,0.019231,-0.002307,-0.001538,4.412606,4.269668,3.065597,1.383840,-0.704408,-1.327552,0.040950
4.699823,-0.035384,0.017692,-0.000769,-0.001538,3.467808,4.785593,3.752711,-0.944797,0.515925,0.687114,0.039561
4.801645,-0.033077,0.016154,-0.002307,-0.001538,3.873749,4.840693,3.108482,0.405940,0.055100,-0.644230,0.036811
4.904017,-0.032308,0.014615,0.000000,-0.001538,3.842940,4.258013,3.952786,-0.030808,-0.582680,0.844305,0.035460
5.006529,-0.030769,0.014615,-0.000769,-0.000000,3.952185,4.520428,3.377250,0.109245,0.262415,-0.575536,0.034064
5.109418,-0.029231,0.013077,-0.000769,-0.000769,3.460098,4.733847,3.588546,-0.492088,0.213419,0.211295,0.032022
5.210827,-0.027692,0.013077,-0.000769,-0.000000,3.839843,4.208366,3.416101,0.379745,-0.525481,-0.172445,0.030625
5.312447,-0.027692,0.011538,0.000000,-0.000769,3.624429,4.450918,3.032633,-0.215414,0.242552,-0.383468,0.030000
5.415580,-0.027692,0.011538,0.000000,-0.000000,3.409460,4.389808,3.405373,-0.214970,-0.061110,0.372740,0.030000
5.517356,-0.027692,0.011538,0.000000,-0.000000,3.876347,4.301854,3.059382,0.466887,-0.087954,-0.345991,0.030000
5.619867,-0.027692,0.012308,0.000000,0.000769,3.484295,4.325125,3.162589,-0.392052,0.023271,0.103207,0.030304
5.722419,-0.028461,0.012308,0.000769,-0.000000,3.837767,4.286192,3.131880,0.353472,-0.038933,-0.030709,0.031009
5.824470,-0.028461,0.011538,0.000000,-0.000769,3.395358,4.537026,3.125044,-0.442409,0.250834,-0.006836,0.030711
5.926230,-0.028461,0.010000,0.000000,-0.000769,3.666857,4.411426,3.279250,0.271499,-0.125601,0.154206,0.030167
6.028264,-0.030000,0.010000,0.000769,-0.000000,3.594637,4.595737,3.106878,-0.072220,0.184311,-0.172371,0.031623
6.130710,-0.030000,0.010000,0.000000,-0.000000,3.478231,4.441164,3.150842,-0.116405,-0.154573,0.043964,0.031623
6.233016,-0.031538,0.008462,0.000769,-0.000769,3.571420,4.491200,3.192747,0.093188,0.050036,0.041905,0.032654
6.335304,-0.031538,0.009231,0.000000,-0.000000,3.411325,4.642377,3.262999,-0.160095,0.151176,0.070252,0.032861
6.436248,-0.030769,0.009231,-0.000769,-0.000000,3.648988,4.349377,3.158218,0.237664,-0.293000,-0.104781,0.032124
6.538537,-0.031538,0.009231,0.000769,-0.000000,3.577653,4.546551,3.203199,-0.071336,0.197174,0.044981,0.032861
6.640607,-0.030769,0.009231,-0.000769,-0.000000,3.502951,4.520030,3.165796,-0.074702,-0.026521,-0.037403,0.032124
6.742667,-0.030769,0.010769,0.000000,0.000769,3.633410,4.482787,3.322270,0.130459,-0.037242,0.156474,0.032599
6.845546,-0.029231,0.010769,-0.000769,-0.000000,3.693542,4.700352,3.106461,0.060132,0.217565,-0.215809,0.031151
6.947610,-0.029231,0.010769,0.000000,-0.000000,3.565271,4.482686,3.285566,-0.128270,-0.217666,0.179105,0.031151
7.048691,-0.029231,0.010769,0.000000,-0.000000,3.668320,4.643603,3.116143,0.103049,0.160918,-0.169423,0.031151
7.151292,-0.029231,0.010000,0.000000,-0.000769,3.556894,4.458694,3.206446,-0.111426,-0.184910,0.090303,0.030894
7.253567,-0.029231,0.010000,0.000000,-0.000000,3.558899,4.636140,3.261946,0.002005,0.177446,0.055500,0.030894
7.355427,-0.029231,0.010000,0.000000,-0.000000,3.687564,4.434919,3.144685,0.128664,-0.201221,-0.117261,0.030894
7.456963,-0.030000,0.010000,0.000769,-0.000000,3.565938,4.577534,3.196920,-0.121625,0.142615,0.052235,0.031623
7.559635,-0.030000,0.010769,0.000000,0.000769,3.585402,4.475723,3.125415,0.019464,-0.101811,-0.071505,0.031874
7.661212,-0.030000,0.010000,0.000000,-0.000000,3.655818,4.537704,3.138102,0.070416,0.061982,0.012686,0.031623
7.762463,-0.030000,0.010000,0.000000,-0.000000,3.574689,4.596055,3.268568,-0.081129,0.058350,0.130466,0.031623
7.865987,-0.030000,0.010000,0.000000,-0.000000,3.687829,4.559035,3.211759,0.113140,-0.037020,-0.056809,0.031623
7.967741,-0.030000,0.010000,0.000000,-0.000000,3.596499,4.682171,3.240129,-0.091330,0.123136,0.028370,0.031623
8.069818,-0.030000,0.010000,0.000000,-0.000000,3.665451,4.539370,3.189181,0.068952,-0.142801,-0.050948,0.031623
8.171113,-0.030000,0.010000,0.000000,-0.000000,3.586567,4.689096,3.219325,-0.078884,0.149727,0.030144,0.031623
8.273559,-0.030000,0.010000,0.000000,-0.000000,3.669403,4.520696,3.170466,0.082836,-0.168401,-0.048858,0.031623
8.375584,-0.030000,0.010000,0.000000,-0.000000,3.574101,4.686086,3.219775,-0.095302,0.165390,0.049309,0.031623
8.477910,-0.030000,0.010000,0.000000,-0.000000,3.685915,4.491220,3.161951,0.111814,-0.194865,-0.057824,0.031623
8.580076,-0.030000,0.010000,0.000000,-0.000000,3.557744,4.680362,3.216914,-0.128170,0.189141,0.054963,0.031623
8.682027,-0.029231,0.010000,-0.000769,-0.000000,3.697236,4.453542,3.146182,0.139492,-0.226820,-0.070732,0.030894
8.782650,-0.027692,0.008462,-0.000769,-0.000769,3.648055,4.657709,3.275066,-0.049181,0.204167,0.128884,0.028956
8.885399,-0.022308,0.003077,-0.005384,-0.005384,3.785208,4.543671,3.414234,0.137154,-0.114038,0.139168,0.022519
8.987623,-0.013846,-0.003846,-0.007691,-0.006922,5.452154,5.066351,5.414234,1.666945,0.522681,2.000000,0.014370
9.089118,-0.004615,-0.012308,-0.008461,-0.008460,3.706496,3.066351,3.414234,-1.745658,-2.000000,-2.000000,0.013145
9.191694,0.003077,-0.020000,-0.008461,-0.007691,3.237401,2.437874,2.228783,-0.469095,-0.628477,-1.185451,0.020235
9.293528,0.011538,-0.026923,-0.007691,-0.006153,4.182647,3.508979,3.176816,0.945246,1.071104,0.948033,0.029291
9.395183,0.019231,-0.033846,-0.007691,-0.006922,3.237456,2.741281,4.653592,-0.945191,-0.767697,1.476776,0.038928
9.497897,0.023846,-0.039231,-0.003846,-0.005384,5.237456,4.741282,4.290622,2.000000,2.000000,-0.362970,0.045909
9.599424,0.027692,-0.044615,-0.003077,-0.004615,4.517926,2.741281,5.594359,-0.719530,-2.000000,1.303737,0.052511
9.701280,0.030769,-0.049230,-0.003077,-0.004615,5.265607,2.300069,3.594359,0.747681,-0.441213,-2.000000,0.058055
9.803389,0.030769,-0.050769,0.000000,-0.000769,3.265607,2.607147,3.108138,-2.000000,0.307078,-0.486222,0.059365
9.905045,0.028461,-0.050769,0.001538,-0.000000,4.010957,4.607147,5.108138,0.745350,2.000000,2.000000,0.058203
10.007325,0.022308,-0.049230,0.005384,0.001538,2.215948,2.607147,3.524254,-1.795009,-2.000000,-1.583883,0.054049
10.109211,0.016154,-0.046154,0.005384,0.002307,3.112229,4.607147,2.626835,0.896281,2.000000,-0.897419,0.048899
10.210196,0.006923,-0.042307,0.009230,0.003846,3.947559,4.207834,4.626835,0.835330,-0.399312,2.000000,0.042870
10.312337,-0.000769,-0.035384,0.007692,0.006153,2.183260,4.189391,3.592016,-1.764299,-0.018443,-1.034819,0.035393
10.414015,-0.007692,-0.029231,0.006153,0.006153,4.183260,5.604920,2.514378,2.000000,1.415529,-1.077637,0.030226
10.517092,-0.018461,-0.020000,0.009999,0.009229,3.599104,5.637650,4.102467,-0.584155,0.032729,1.588089,0.027218
10.618182,-0.025384,-0.010769,0.006922,0.009229,4.774990,5.995011,2.354012,1.175886,0.357362,-1.748455,0.027574
10.720393,-0.032308,-0.003077,0.006153,0.006922,3.608963,5.993329,4.180022,-1.166028,-0.001683,1.826010,0.032454
10.822715,-0.038461,0.007692,0.006153,0.011537,5.292371,5.997049,2.304432,1.683409,0.003721,-1.875591,0.039223
10.925161,-0.044615,0.015385,0.006153,0.007691,3.292371,5.997912,3.089670,-2.000000,0.000863,0.785238,0.047193
11.027721,-0.048461,0.020769,0.003846,0.005384,4.984470,5.999768,2.163838,1.692099,0.001855,-0.925832,0.052724
11.129756,-0.053077,0.023846,0.003846,0.002307,2.984470,5.977291,3.207647,-2.000000,-0.022477,1.043808,0.058187
11.231711,-0.054615,0.024615,0.000769,0.000769,3.376306,5.992897,2.177132,0.391836,0.015606,-1.030515,0.059906
11.333367,-0.054615,0.023077,0.000000,-0.001538,3.401227,5.064443,4.177132,0.024920,-0.928454,2.000000,0.059290
11.434785,-0.053077,0.017692,-0.001538,-0.004615,4.204661,5.560484,5.129331,0.803435,0.496041,0.952198,0.055948
11.536801,-0.050769,0.010000,-0.001538,-0.007691,2.742973,4.735993,5.125729,-1.461688,-0.824491,-0.003602,0.051744
11.642579,-0.045384,0.000000,-0.005384,-0.009229,3.913740,2.735993,5.891043,1.170767,-2.000000,0.765314,0.045384
11.744811,-0.039231,-0.008461,-0.005384,-0.009229,4.588927,4.735993,3.891043,0.675187,2.000000,-2.000000,0.040133
11.846710,-0.030769,-0.016923,-0.007691,-0.007691,2.812770,4.991364,4.572822,-1.776157,0.255371,0.681779,0.035116
11.949783,-0.023077,-0.022308,-0.007691,-0.005384,4.812770,3.817197,5.913766,2.000000,-1.174167,1.340944,0.032096
12.053277,-0.015385,-0.025384,-0.007691,-0.002307,4.643619,4.951137,3.913766,-0.169151,1.133940,-2.000000,0.029683
12.155425,-0.008462,-0.026154,-0.006153,-0.000769,4.633007,4.280443,2.624245,-0.010612,-0.670694,-1.289521,0.027488
12.257746,-0.003077,-0.025384,-0.004615,0.000769,4.180488,3.638785,3.991721,-0.452519,-0.641658,1.367476,0.025570
12.359919,0.000769,-0.023077,-0.004615,0.002307,3.511328,2.575055,2.901989,-0.669160,-1.063730,-1.089731,0.023090
12.462238,0.003846,-0.019231,-0.003077,0.003846,5.240356,3.817891,3.443613,1.729029,1.242836,0.541624,0.019611
12.563490,0.005385,-0.014615,-0.000769,0.003846,3.240356,3.342046,2.314394,-2.000000,-0.475845,-1.129219,0.015576
12.665294,0.004615,-0.010769,0.000000,0.003076,4.972610,5.342046,2.805039,1.732254,2.000000,0.490645,0.011716
12.767244,0.002308,-0.006923,0.002307,0.003846,3.954333,3.342046,4.805039,-1.018277,-2.000000,2.000000,0.007297
12.869445,-0.002308,-0.002308,0.004615,0.003846,2.877543,5.212501,2.805039,-1.076790,1.870455,-2.000000,0.003264
12.971158,-0.009231,0.000769,0.006153,0.003076,4.877543,5.977518,2.541598,2.000000,0.765018,-0.263441,0.009263
13.072825,-0.016154,0.002308,0.006922,0.001538,3.133546,5.483880,3.574518,-1.743997,-0.493638,1.032920,0.016318
13.175276,-0.025384,0.004615,0.008461,0.001538,3.569152,5.913443,2.513890,0.435606,0.429563,-1.060628,0.025801
13.278708,-0.033846,0.006154,0.008461,0.001538,3.537342,5.555635,4.002061,-0.031810,-0.357808,1.488171,0.034401
13.380230,-0.044615,0.008462,0.009999,0.002307,3.214428,5.937275,4.905521,-0.322915,0.381640,0.903460,0.045410
13.482730,-0.050000,0.008462,0.004615,-0.000000,3.431262,5.994061,4.841082,0.216835,0.056787,-0.064439,0.050711
13.584259,-0.055384,0.006923,0.005384,-0.000769,3.342443,5.854198,4.247817,-0.088819,-0.139863,-0.593265,0.055815
13.686124,-0.059230,0.003077,0.003846,-0.003076,2.920929,5.900860,5.178694,-0.421514,0.046662,0.930877,0.059310
13.787409,-0.060769,0.001538,0.000769,-0.001538,2.932789,4.853053,5.505126,0.011860,-1.047807,0.326432,0.060788
13.890943,-0.060000,-0.000769,0.000000,-0.002307,3.911038,4.145188,4.621435,0.978249,-0.707865,-0.883691,0.060005
13.992998,-0.057692,-0.002308,-0.002307,-0.001538,4.531649,5.989892,4.856286,0.620611,1.844704,0.234851,0.057738
14.095130,-0.052307,-0.004615,-0.004615,-0.001538,3.071260,5.450377,4.403282,-1.460389,-0.539515,-0.453004,0.052511
14.199116,-0.046923,-0.003846,-0.005384,-0.000000,4.269744,3.450377,4.370290,1.198484,-2.000000,-0.032992,0.047080
14.302560,-0.043077,-0.002308,-0.003846,0.000769,5.149144,4.375693,3.804808,0.879400,0.925315,-0.565482,0.043138
14.403977,-0.037692,-0.000769,-0.005384,0.000769,3.149144,4.210388,5.265163,-2.000000,-0.165305,1.460355,0.037700
14.507274,-0.033846,0.000000,-0.003077,0.000769,5.149144,4.444384,5.322734,2.000000,0.233996,0.057571,0.033846
14.608157,-0.032308,0.003077,-0.000769,0.003076,4.406648,5.873880,3.322734,-0.742497,1.429496,-2.000000,0.032454
14.710575,-0.030000,0.007692,-0.002307,0.003846,4.651000,5.974553,3.670666,0.244352,0.100673,0.347932,0.030970
14.812856,-0.029231,0.013077,0.000000,0.005384,4.275820,4.651500,2.408122,-0.375180,-1.323053,-1.262544,0.032022
14.914133,-0.027692,0.016923,-0.000769,0.003076,3.167722,5.882390,3.284179,-1.108097,1.230890,0.876058,0.032454
15.016084,-0.026154,0.018461,-0.000769,0.000769,5.124957,5.471749,2.167111,1.957235,-0.410641,-1.117068,0.032013
15.117794,-0.023846,0.018461,-0.002307,-0.000000,3.124957,4.347307,2.689776,-2.000000,-1.124443,0.522665,0.030157
15.219592,-0.020000,0.016923,-0.003846,-0.001538,3.769536,5.172898,2.403135,0.644579,0.825592,-0.286641,0.026199
15.322141,-0.016154,0.013077,-0.003077,-0.003076,4.609992,3.172898,4.085732,0.840456,-2.000000,1.682596,0.020783
15.424065,-0.010769,0.008462,-0.004615,-0.003846,2.609992,2.398529,2.195357,-2.000000,-0.774369,-1.890374,0.013696
15.527185,-0.007692,0.003077,-0.003077,-0.005384,4.317045,4.144832,2.422262,1.707053,1.746303,0.226905,0.008285
15.628632,-0.005385,-0.001538,-0.001538,-0.004615,4.841864,2.254542,4.422262,0.524818,-1.890291,2.000000,0.005600
15.731036,-0.004615,-0.006154,0.000000,-0.004615,2.841864,2.166142,2.422262,-2.000000,-0.088400,-2.000000,0.007692
15.832435,-0.006154,-0.010769,0.001538,-0.004615,3.175785,4.166142,3.553312,0.333922,2.000000,1.131050,0.012403
15.934354,-0.009231,-0.014615,0.002307,-0.003076,2.269054,5.004298,5.553312,-0.906731,0.838156,2.000000,0.017286
16.036457,-0.015385,-0.016154,0.006153,-0.001538,2.608703,3.004298,5.576694,0.339649,-2.000000,0.023382,0.022308
16.138188,-0.021538,-0.018461,0.006153,-0.001538,2.741028,5.004298,5.484103,0.132324,2.000000,-0.092591,0.028368
16.241034,-0.027692,-0.018461,0.006153,-0.000000,2.185209,5.996965,5.895883,-0.555818,0.992667,0.411780,0.033282
16.342781,-0.033846,-0.015385,0.006153,0.002307,2.761035,5.792889,5.035077,0.575825,-0.204077,-0.860806,0.037178
16.444871,-0.039231,-0.009231,0.004615,0.006153,3.301891,5.981357,4.218433,0.540856,0.188468,-0.816644,0.040302
16.548010,-0.041538,0.000000,0.002307,0.009229,4.288422,5.995968,3.326192,0.986531,0.014611,-0.892241,0.041538
16.649940,-0.042307,0.010769,0.000769,0.010767,4.012090,5.998169,2.934355,-0.276331,0.002201,-0.391838,0.043657
16.752361,-0.040769,0.023077,-0.001538,0.011537,4.666190,5.996800,2.218385,0.654100,-0.001369,-0.715970,0.046847
16.853516,-0.038461,0.033077,-0.001538,0.009998,4.288897,5.947180,2.248102,-0.377294,-0.049619,0.029718,0.050728
16.956606,-0.036154,0.040000,-0.002307,0.006922,4.933325,5.958099,2.157935,0.644429,0.010919,-0.090168,0.053917
17.058423,-0.030769,0.043846,-0.004615,0.003076,4.214648,5.510190,2.199552,-0.718677,-0.447909,0.041617,0.053565
17.161504,-0.026154,0.042307,-0.004615,-0.000769,4.503509,5.351379,2.181715,0.288860,-0.158811,-0.017836,0.049739
17.263624,-0.022308,0.037692,-0.003077,-0.004615,4.723997,4.867795,4.181715,0.220488,-0.483584,2.000000,0.043799
17.364771,-0.018461,0.030769,-0.003846,-0.006153,4.491798,4.285033,4.456169,-0.232199,-0.582762,0.274453,0.035883
17.467348,-0.014615,0.021538,-0.003077,-0.009229,4.222435,3.627047,4.533340,-0.269362,-0.657986,0.077172,0.026029
17.569396,-0.013846,0.010769,-0.000769,-0.009998,3.353444,4.073048,3.435828,-0.868991,0.446001,-1.097513,0.017541
17.671702,-0.014615,0.001538,0.000000,-0.009229,3.057238,5.364346,4.880840,-0.296206,1.291297,1.445013,0.014696
17.772879,-0.016154,-0.004615,0.000769,-0.006922,3.009173,4.097435,5.922783,-0.048065,-1.266911,1.041943,0.016800
17.876586,-0.019231,-0.011538,0.003077,-0.006153,4.139971,2.463644,5.446874,1.130797,-1.633791,-0.475909,0.022427
17.978599,-0.021538,-0.014615,0.001538,-0.002307,4.071429,4.463644,3.446874,-0.068542,2.000000,-2.000000,0.026029
18.080499,-0.024615,-0.014615,0.002307,-0.000000,2.786958,5.948556,5.446874,-1.284471,1.484912,2.000000,0.028627
